# Pulseq sequence file
# Created by PyPulseq

[VERSION]
major 1
minor 4
revision 2

[DEFINITIONS]
AdcRasterTime 1e-07 
BlockDurationRaster 1e-05 
GradientRasterTime 2e-05 
RadiofrequencyRasterTime 1e-05 

# Format of blocks:
# NUM DUR RF  GX  GY  GZ  ADC  EXT
[BLOCKS]
 1 358   1   0   0   1  0  0
 2 250   0   2   3   4  0  0
 3 645   0   0   0   0  0  0
 4 400   0   0   0   5  0  0
 5 704   2   0   0   6  0  0
 6 400   0   0   0   5  0  0
 7 122   0   0   0   0  0  0
 8 254   0   7   0   0  1  0
 9 400   0   0   8   5  0  0
10 27496   0   0   0   0  0  0

# Format of RF events:
# id amplitude mag_id phase_id time_shape_id delay freq phase
# ..        Hz   ....     ....          ....    us   Hz   rad
[RF]
1      282.146 1 2 0 40 -2285.71 0
2      282.125 3 4 0 20 -1142.86 1.5708

# Format of trapezoid gradients:
# id amplitude rise flat fall delay
# ..      Hz/m   us   us   us    us
[TRAP]
 1       304762  40 3500  40   0
 2       106667  20 1250  20   0
 3      -1683.5  20 1960  20   0
 4      -240816 260 1980 260   0
 5  1.19873e+06 400 3200 400   0
 6       152381  20 7000  20   0
 7       106667  20 2500  20   0
 8       1683.5  20 1960  20   0

# Format of ADC events:
# id num dwell delay freq phase
# ..  ..    ns    us   Hz   rad
[ADC]
1 40 62500 20 0 0

# Sequence Shapes
[SHAPES]

shape_id 1
num_samples 350
5.77143847e-08
1.56651235e-06
7.28736347e-06
2.0083955e-05
4.28530332e-05
7.85118153e-05
0.000129985119
0.000200192245
0.000292033653
0.00040837746
0.000552045808
0.000725801134
0.000932332382
0.0011742412
0.00145402817
0.00177407906
0.00213665128
0.00254386034
0.00299766665
0.0034998624
0.00405205885
0.00465567384
0.00531191964
0.00602179127
0.00678605518
0.00760523841
0.00847961827
0.00940921257
0.0103937703
0.0114327633
0.0125253779
0.0136705078
0.0148667478
0.0161123873
0.0174054058
0.0187434682
0.0201239215
0.0215437919
0.0229997833
0.0244882759
0.0260053265
0.0275466689
0.0291077159
0.030683562
0.0322689865
0.0338584583
0.0354461411
0.0370258998
0.0385913076
0.0401356543
0.0416519551
0.0431329609
0.0445711687
0.0459588334
0.0472879806
0.0485504198
0.0497377583
0.0508414168
0.0518526444
0.0527625359
0.053562048
0.0542420181
0.0547931819
0.0552061931
0.0554716429
0.0555800797
0.0555220305
0.0552880212
0.0548685984
0.0542543514
0.0534359338
0.0524040862
0.0511496586
0.0496636331
0.0479371467
0.0459615138
0.0437282496
0.0412290923
0.0384560261
0.0354013033
0.0320574668
0.028417372
0.0244742081
0.0202215198
0.0156532279
0.0107636493
0.0055475172
1.949e-17
0.00588328017
0.0121062296
0.018672266
0.025584302
0.0328447301
0.0404554077
0.0484176436
0.0567321853
0.0653992075
0.0744183011
0.0837884636
0.093508091
0.10357497
0.113986272
0.124738548
0.135827725
0.147249103
0.158997354
0.17106652
0.183450019
0.196140641
0.209130557
0.222411322
0.235973879
0.249808572
0.263905148
0.278252773
0.292840042
0.307654987
0.322685097
0.33791733
0.35333813
0.368933443
0.384688738
0.400589024
0.416618872
0.432762437
0.449003481
0.465325394
0.481711221
0.498143689
0.514605229
0.531078006
0.547543946
0.563984764
0.580381994
0.596717018
0.612971096
0.629125396
0.645161026
0.661059066
0.676800596
0.692366732
0.707738654
0.72289764
0.737825098
0.752502598
0.766911901
0.781034993
0.794854117
0.808351801
0.821510891
0.834314579
0.846746436
0.858790436
0.870430989
0.881652965
0.892441725
0.902783143
0.912663634
0.922070175
0.930990335
0.93941229
0.947324847
0.954717467
0.961580281
0.967904107
0.973680469
0.978901613
0.983560518
0.987650912
0.991167279
0.994104875
0.996459732
0.998228668
0.999409289
1
1
0.999409289
0.998228668
0.996459732
0.994104875
0.991167279
0.987650912
0.983560518
0.978901613
0.973680469
0.967904107
0.961580281
0.954717467
0.947324847
0.93941229
0.930990335
0.922070175
0.912663634
0.902783143
0.892441725
0.881652965
0.870430989
0.858790436
0.846746436
0.834314579
0.821510891
0.808351801
0.794854117
0.781034993
0.766911901
0.752502598
0.737825098
0.72289764
0.707738654
0.692366732
0.676800596
0.661059066
0.645161026
0.629125396
0.612971096
0.596717018
0.580381994
0.563984764
0.547543946
0.531078006
0.514605229
0.498143689
0.481711221
0.465325394
0.449003481
0.432762437
0.416618872
0.400589024
0.384688738
0.368933443
0.35333813
0.33791733
0.322685097
0.307654987
0.292840042
0.278252773
0.263905148
0.249808572
0.235973879
0.222411322
0.209130557
0.196140641
0.183450019
0.17106652
0.158997354
0.147249103
0.135827725
0.124738548
0.113986272
0.10357497
0.093508091
0.0837884636
0.0744183011
0.0653992075
0.0567321853
0.0484176436
0.0404554077
0.0328447301
0.025584302
0.018672266
0.0121062296
0.00588328017
1.2188e-16
0.0055475172
0.0107636493
0.0156532279
0.0202215198
0.0244742081
0.028417372
0.0320574668
0.0354013033
0.0384560261
0.0412290923
0.0437282496
0.0459615138
0.0479371467
0.0496636331
0.0511496586
0.0524040862
0.0534359338
0.0542543514
0.0548685984
0.0552880212
0.0555220305
0.0555800797
0.0554716429
0.0552061931
0.0547931819
0.0542420181
0.053562048
0.0527625359
0.0518526444
0.0508414168
0.0497377583
0.0485504198
0.0472879806
0.0459588334
0.0445711687
0.0431329609
0.0416519551
0.0401356543
0.0385913076
0.0370258998
0.0354461411
0.0338584583
0.0322689865
0.030683562
0.0291077159
0.0275466689
0.0260053265
0.0244882759
0.0229997833
0.0215437919
0.0201239215
0.0187434682
0.0174054058
0.0161123873
0.0148667478
0.0136705078
0.0125253779
0.0114327633
0.0103937703
0.00940921257
0.00847961827
0.00760523841
0.00678605518
0.00602179127
0.00531191964
0.00465567384
0.00405205885
0.0034998624
0.00299766665
0.00254386034
0.00213665128
0.00177407906
0.00145402817
0.0011742412
0.000932332382
0.000725801134
0.000552045808
0.00040837746
0.000292033653
0.000200192245
0.000129985119
7.85118153e-05
4.28530332e-05
2.0083955e-05
7.28736347e-06
1.56651235e-06
5.77143847e-08

shape_id 2
num_samples 350
0.5
0
0
84
-0.5
0
0
172
0.5
0
0
85

shape_id 3
num_samples 700
7.20390465e-09
1.95039974e-07
9.05342429e-07
2.49052592e-06
5.30602943e-06
9.70993789e-06
1.60625986e-05
2.47262322e-05
3.60645398e-05
5.0442304e-05
6.82249873e-05
8.97783254e-05
0.000115467917
0.000145658811
0.00018071509
0.000220999448
0.000266872773
0.00031869372
0.000376818285
0.000441599376
0.000513386387
0.000592524765
0.00067935558
0.000774215093
0.000877434325
0.000989338625
0.00111024724
0.00124047289
0.00138032133
0.00153009091
0.0016900722
0.00186054752
0.00204179051
0.00223406576
0.00243762836
0.0026527235
0.00287958606
0.0031184402
0.00336949898
0.00363296392
0.00390902468
0.00419785862
0.00449963044
0.00481449179
0.00514258095
0.00548402242
0.00583892658
0.00620738937
0.0065894919
0.00698530019
0.00739486476
0.00781822041
0.00825538584
0.00870636337
0.00917113867
0.0096496805
0.0101419404
0.0106478523
0.0111673327
0.01170028
0.0122465743
0.0128060774
0.0133786326
0.0139640643
0.0145621779
0.0151727596
0.0157955764
0.0164303758
0.0170768858
0.0177348143
0.0184038499
0.019083661
0.0197738958
0.0204741829
0.0211841303
0.021903326
0.0226313379
0.0233677136
0.0241119803
0.0248636451
0.025622195
0.0263870968
0.0271577969
0.0279337222
0.0287142792
0.0294988546
0.0302868156
0.0310775095
0.0318702643
0.0326643885
0.0334591716
0.0342538839
0.0350477772
0.0358400845
0.0366300205
0.0374167818
0.0381995472
0.0389774779
0.0397497176
0.0405153933
0.041273615
0.0420234765
0.0427640557
0.0434944144
0.0442135995
0.0449206427
0.0456145612
0.0462943582
0.046959023
0.0476075317
0.0482388474
0.0488519211
0.0494456915
0.0500190862
0.0505710217
0.0511004038
0.0516061288
0.0520870833
0.0525421452
0.0529701838
0.053370061
0.0537406311
0.054080742
0.0543892357
0.0546649484
0.0549067117
0.0551133529
0.0552836958
0.055416561
0.055510767
0.0555651305
0.0555784671
0.0555495921
0.0554773212
0.0553604707
0.0551978589
0.0549883062
0.0547306361
0.0544236757
0.0540662565
0.053657215
0.0531953938
0.0526796416
0.0521088144
0.0514817763
0.0507973998
0.0500545667
0.049252169
0.0483891093
0.0474643018
0.0464766727
0.0454251611
0.04430872
0.0431263163
0.0418769322
0.0405595654
0.0391732302
0.0377169579
0.0361897977
0.0345908171
0.0329191032
0.0311737625
0.0293539223
0.0274587311
0.0254873593
0.0234389996
0.0213128683
0.0191082051
0.0168242745
0.0144603658
0.0120157943
0.0094899013
0.00688205524
0.00419165197
0.00141811544
0.00143910177
0.00438051785
0.00740662128
0.0105178702
0.0137146921
0.0169974829
0.0203666069
0.0238223961
0.0273651497
0.0309951336
0.0347125802
0.0385176877
0.0424106199
0.0463915057
0.0504604385
0.0546174764
0.0588626412
0.0631959186
0.0676172577
0.0721265703
0.0767237313
0.0814085781
0.0861809103
0.0910404894
0.0959870388
0.101020244
0.106139751
0.111345167
0.116636062
0.122011966
0.12747237
0.133016725
0.138644443
0.144354899
0.150147426
0.156021319
0.161975833
0.168010185
0.174123552
0.180315071
0.186583841
0.192928923
0.199349338
0.205844068
0.212412058
0.219052214
0.225763404
0.232544458
0.239394169
0.246311293
0.253294547
0.260342614
0.267454139
0.274627733
0.281861969
0.289155386
0.296506488
0.303913746
0.311375595
0.318890437
0.326456643
0.33407255
0.341736462
0.349446655
0.357201371
0.364998822
0.372837194
0.380714639
0.388629285
0.396579228
0.404562542
0.412577269
0.420621431
0.42869302
0.436790007
0.444910339
0.453051938
0.461212708
0.469390527
0.477583257
0.485788738
0.494004791
0.502229221
0.510459814
0.51869434
0.526930555
0.535166199
0.543398998
0.551626668
0.55984691
0.568057417
0.576255868
0.584439938
0.592607291
0.600755583
0.608882466
0.616985586
0.625062583
0.633111098
0.641128765
0.649113219
0.657062094
0.664973025
0.67284365
0.680671606
0.688454536
0.696190089
0.703875917
0.711509679
0.719089043
0.726611684
0.734075288
0.74147755
0.748816179
0.756088893
0.763293427
0.770427528
0.777488961
0.784475504
0.791384956
0.798215133
0.804963869
0.811629021
0.818208464
0.824700098
0.831101844
0.837411649
0.843627484
0.849747344
0.855769254
0.861691265
0.867511455
0.873227934
0.878838841
0.884342344
0.889736646
0.895019981
0.900190615
0.905246852
0.910187027
0.915009513
0.919712717
0.924295087
0.928755104
0.933091292
0.937302211
0.941386462
0.945342686
0.949169566
0.952865826
0.956430231
0.959861591
0.963158759
0.966320629
0.969346143
0.972234285
0.974984087
0.977594624
0.980065019
0.98239444
0.984582104
0.986627274
0.98852926
0.99028742
0.991901162
0.993369941
0.99469326
0.995870673
0.996901782
0.997786238
0.998523743
0.999114046
0.999556948
0.999852299
1
1
0.999852299
0.999556948
0.999114046
0.998523743
0.997786238
0.996901782
0.995870673
0.99469326
0.993369941
0.991901162
0.99028742
0.98852926
0.986627274
0.984582104
0.98239444
0.980065019
0.977594624
0.974984087
0.972234285
0.969346143
0.966320629
0.963158759
0.959861591
0.956430231
0.952865826
0.949169566
0.945342686
0.941386462
0.937302211
0.933091292
0.928755104
0.924295087
0.919712717
0.915009513
0.910187027
0.905246852
0.900190615
0.895019981
0.889736646
0.884342344
0.878838841
0.873227934
0.867511455
0.861691265
0.855769254
0.849747344
0.843627484
0.837411649
0.831101844
0.824700098
0.818208464
0.811629021
0.804963869
0.798215133
0.791384956
0.784475504
0.777488961
0.770427528
0.763293427
0.756088893
0.748816179
0.74147755
0.734075288
0.726611684
0.719089043
0.711509679
0.703875917
0.696190089
0.688454536
0.680671606
0.67284365
0.664973025
0.657062094
0.649113219
0.641128765
0.633111098
0.625062583
0.616985586
0.608882466
0.600755583
0.592607291
0.584439938
0.576255868
0.568057417
0.55984691
0.551626668
0.543398998
0.535166199
0.526930555
0.51869434
0.510459814
0.502229221
0.494004791
0.485788738
0.477583257
0.469390527
0.461212708
0.453051938
0.444910339
0.436790007
0.42869302
0.420621431
0.412577269
0.404562542
0.396579228
0.388629285
0.380714639
0.372837194
0.364998822
0.357201371
0.349446655
0.341736462
0.33407255
0.326456643
0.318890437
0.311375595
0.303913746
0.296506488
0.289155386
0.281861969
0.274627733
0.267454139
0.260342614
0.253294547
0.246311293
0.239394169
0.232544458
0.225763404
0.219052214
0.212412058
0.205844068
0.199349338
0.192928923
0.186583841
0.180315071
0.174123552
0.168010185
0.161975833
0.156021319
0.150147426
0.144354899
0.138644443
0.133016725
0.12747237
0.122011966
0.116636062
0.111345167
0.106139751
0.101020244
0.0959870388
0.0910404894
0.0861809103
0.0814085781
0.0767237313
0.0721265703
0.0676172577
0.0631959186
0.0588626412
0.0546174764
0.0504604385
0.0463915057
0.0424106199
0.0385176877
0.0347125802
0.0309951336
0.0273651497
0.0238223961
0.0203666069
0.0169974829
0.0137146921
0.0105178702
0.00740662128
0.00438051785
0.00143910177
0.00141811544
0.00419165197
0.00688205524
0.0094899013
0.0120157943
0.0144603658
0.0168242745
0.0191082051
0.0213128683
0.0234389996
0.0254873593
0.0274587311
0.0293539223
0.0311737625
0.0329191032
0.0345908171
0.0361897977
0.0377169579
0.0391732302
0.0405595654
0.0418769322
0.0431263163
0.04430872
0.0454251611
0.0464766727
0.0474643018
0.0483891093
0.049252169
0.0500545667
0.0507973998
0.0514817763
0.0521088144
0.0526796416
0.0531953938
0.053657215
0.0540662565
0.0544236757
0.0547306361
0.0549883062
0.0551978589
0.0553604707
0.0554773212
0.0555495921
0.0555784671
0.0555651305
0.055510767
0.055416561
0.0552836958
0.0551133529
0.0549067117
0.0546649484
0.0543892357
0.054080742
0.0537406311
0.053370061
0.0529701838
0.0525421452
0.0520870833
0.0516061288
0.0511004038
0.0505710217
0.0500190862
0.0494456915
0.0488519211
0.0482388474
0.0476075317
0.046959023
0.0462943582
0.0456145612
0.0449206427
0.0442135995
0.0434944144
0.0427640557
0.0420234765
0.041273615
0.0405153933
0.0397497176
0.0389774779
0.0381995472
0.0374167818
0.0366300205
0.0358400845
0.0350477772
0.0342538839
0.0334591716
0.0326643885
0.0318702643
0.0310775095
0.0302868156
0.0294988546
0.0287142792
0.0279337222
0.0271577969
0.0263870968
0.025622195
0.0248636451
0.0241119803
0.0233677136
0.0226313379
0.021903326
0.0211841303
0.0204741829
0.0197738958
0.019083661
0.0184038499
0.0177348143
0.0170768858
0.0164303758
0.0157955764
0.0151727596
0.0145621779
0.0139640643
0.0133786326
0.0128060774
0.0122465743
0.01170028
0.0111673327
0.0106478523
0.0101419404
0.0096496805
0.00917113867
0.00870636337
0.00825538584
0.00781822041
0.00739486476
0.00698530019
0.0065894919
0.00620738937
0.00583892658
0.00548402242
0.00514258095
0.00481449179
0.00449963044
0.00419785862
0.00390902468
0.00363296392
0.00336949898
0.0031184402
0.00287958606
0.0026527235
0.00243762836
0.00223406576
0.00204179051
0.00186054752
0.0016900722
0.00153009091
0.00138032133
0.00124047289
0.00111024724
0.000989338625
0.000877434325
0.000774215093
0.00067935558
0.000592524765
0.000513386387
0.000441599376
0.000376818285
0.00031869372
0.000266872773
0.000220999448
0.00018071509
0.000145658811
0.000115467917
8.97783254e-05
6.82249873e-05
5.0442304e-05
3.60645398e-05
2.47262322e-05
1.60625986e-05
9.70993789e-06
5.30602943e-06
2.49052592e-06
9.05342429e-07
1.95039974e-07
7.20390465e-09

shape_id 4
num_samples 700
0.5
0
0
172
-0.5
0
0
347
0.5
0
0
172


[SIGNATURE]
# This is the hash of the Pulseq file, calculated right before the [SIGNATURE] section was added
# It can be reproduced/verified with md5sum if the file trimmed to the position right above [SIGNATURE]
# The new line character preceding [SIGNATURE] BELONGS to the signature (and needs to be stripped away for recalculating/verification)
Type md5
Hash e78a73eed3ae0a4b4dece9182c84862d
